"Total Cycles","Elapsed Cycles","Step","Position:Maximum (mm)","Position:Minimum (mm)","Load:Maximum (kN)","Load:Minimum (kN)","Load:Amplitude (kN)","Load:Mean of Peaks (kN)",
1,1,2,0.343816346406145,0.335674027820164,4.80115413665771,4.49362136423588,0.153766386210918,4.6473877504468,
2,2,2,0.35045005020923,0.342070844044676,5.00011034309864,4.71586957573891,0.142120383679867,4.85798995941877,
3,3,2,0.353972564244596,0.346959400320891,5.12052327394485,4.8564538359642,0.132034718990326,4.98848855495453,
4,4,2,0.356487560918368,0.350459204941895,5.19966706633568,4.96679916977882,0.116433948278427,5.08323311805725,
5,5,2,0.359332411835762,0.351872936952906,5.26109598577023,4.9932774156332,0.133909285068512,5.12718670070171,
6,6,2,0.360572132959217,0.354217400118196,5.28526902198792,5.05535900592804,0.114955008029938,5.17031401395798,
7,7,2,0.361956697566155,0.356767809284991,5.3170420229435,5.10174222290516,0.107649900019169,5.20939212292433,
8,8,2,0.361158958419738,0.355942109172139,5.25660142302513,5.02038821578026,0.118106603622437,5.13849481940269,
9,9,2,0.362265190766891,0.35635201410139,5.25531396269798,5.02564311027527,0.114835426211357,5.14047853648663,
10,10,2,0.361879130722722,0.355916703014821,5.22430092096329,4.96338084340096,0.130460038781166,5.09384088218212,
20,20,2,0.353665348448418,0.341032527039852,4.74866069853306,4.1000809520483,0.324289873242378,4.42437082529068,
30,30,2,0.363475957387034,0.342203552184859,5.06288781762123,4.09137271344662,0.485757552087307,4.57713026553392,
40,40,2,0.373107871621381,0.34438862364809,5.39899840950966,4.10053506493568,0.649231672286987,4.74976673722267,
50,50,2,0.38158834758061,0.345981263264129,5.71202971041203,4.06699292361736,0.822518393397331,4.88951131701469,
60,60,2,0.387168476491095,0.343906403427478,5.84813803434372,3.86705547571182,0.990541279315948,4.85759675502777,
70,70,2,0.391696591781219,0.341530005148239,5.99567629396915,3.68391312658787,1.15588158369064,4.83979471027851,
80,80,2,0.39626338404268,0.340820548850158,6.18111528456211,3.58111374080181,1.30000077188015,4.88111451268196,
90,90,2,0.398067647013813,0.336471837933501,6.20252527296543,3.31831946969032,1.44210290163755,4.76042237132788,
100,100,2,0.400729545211745,0.33287239575698,6.30258321762085,3.11136189848185,1.5956106595695,4.70697255805135,
110,110,2,0.408568196347542,0.333999705279339,6.58538118004799,3.10579780489206,1.73979168757796,4.84558949247003,
120,120,2,0.41286134016593,0.332465400471445,6.69941082596779,2.97666154801846,1.86137463897467,4.83803618699312,
130,130,2,0.418211252388312,0.329961190769495,6.88087493181229,2.80631445348263,2.03728023916483,4.84359469264746,
140,140,2,0.422925939710811,0.33001370629021,7.04901814460754,2.72771678864956,2.16065067797899,4.88836746662855,
150,150,2,0.426180908458214,0.326004359184438,7.13249370455742,2.48146317899227,2.32551526278257,4.80697844177485,
160,160,2,0.427895824077213,0.321283568706829,7.18564391136169,2.22779121249914,2.47892634943128,4.70671756193042,
170,170,2,0.432913114346098,0.320331405542744,7.34456107020378,2.15574987232685,2.59440559893847,4.75015547126532,
180,180,2,0.439736157891434,0.321407618882786,7.593734562397,2.13395692408085,2.72988881915808,4.86384574323893,
190,190,2,0.439894768957375,0.318989563021576,7.56492391228676,1.93789843469858,2.81351273879409,4.75141117349267,
200,200,2,0.443752885556873,0.318526787737012,7.70276486873627,1.86839215457439,2.91718635708094,4.78557851165533,
210,210,2,0.449946381555917,0.32041947549032,7.92107433080673,1.91672407090664,3.00217512995005,4.91889920085669,
220,220,2,0.453113990024943,0.31719935150058,7.96897560358047,1.72790829092264,3.12053365632892,4.84844194725156,
230,230,2,0.452164807471493,0.313915073415264,7.94384405016899,1.5293731354177,3.20723545737565,4.73660859279335,
240,240,2,0.458304510545265,0.316220646708459,8.16108733415604,1.56822893768549,3.29642919823527,4.86465813592076,
250,250,2,0.458945270864898,0.312071565737436,8.13991129398346,1.36674102395773,3.38658513501287,4.75332615897059,
260,260,2,0.46348083768161,0.313746030212101,8.29222872853279,1.38476695865393,3.45373088493943,4.83849784359336,
270,270,2,0.463223298729351,0.309798921095068,8.23341012001038,1.16402814164758,3.5346909891814,4.69871913082898,
280,280,2,0.467649505522521,0.312503186544171,8.40476751327515,1.24773485586047,3.57851632870734,4.82625118456781,
290,290,2,0.472754794772062,0.312400355477259,8.58647078275681,1.19111482053995,3.69767798110843,4.88879280164838,
300,300,2,0.471237309124181,0.311651796406321,8.50959196686745,1.12154977396131,3.69402109645307,4.81557087041438,
310,310,2,0.471827682930697,0.307022198420763,8.48770588636398,0.874538626521826,3.80658362992108,4.6811222564429,
320,320,2,0.478611197901657,0.309971583611146,8.73066335916519,0.973078794777393,3.8787922821939,4.85187107697129,
330,330,2,0.478528450473072,0.307392574775638,8.69582146406174,0.824499968439341,3.9356607478112,4.76016071625054,
340,340,2,0.479023373772344,0.308847964368621,8.70555490255356,0.853630527853966,3.9259621873498,4.77959271520376,
350,350,2,0.481809606013913,0.309231185735995,8.81552845239639,0.8478669449687,3.98383075371385,4.83169769868255,
360,360,2,0.484411537164543,0.307222679969436,8.89703631401062,0.758649967610836,4.06919317319989,4.82784314081073,
370,370,2,0.484521748791123,0.307497321949387,8.83363485336304,0.7078574039042,4.06288872472942,4.77074612863362,
380,380,2,0.489579916005861,0.309279798076116,9.06048640608788,0.762976333498955,4.14875503629446,4.91173136979342,
390,390,2,0.485562052869704,0.304775456704153,8.87519866228104,0.508932024240494,4.18313331902027,4.69206534326077,
400,400,2,0.487856413389556,0.306361496396642,8.94342511892319,0.567954871803522,4.18773512355983,4.75568999536335,
410,410,2,0.490035381697677,0.306519113925705,9.00317803025246,0.580289028584957,4.21144450083375,4.79173352941871,
420,420,2,0.492898329179641,0.308377453689789,9.0878888964653,0.595047511160374,4.24642069265246,4.84146820381284,
430,430,2,0.491642427598452,0.306115666986164,9.00146588683128,0.461417622864246,4.27002413198352,4.73144175484777,
440,440,2,0.492862916686619,0.307621726959944,9.0812660753727,0.519297644495964,4.28098421543837,4.80028185993433,
450,450,2,0.494526878057141,0.304609607012384,9.10122245550156,0.365896429866552,4.3676630128175,4.73355944268405,
460,460,2,0.495380893971026,0.306445450262865,9.12996530532837,0.428065005689859,4.35095014981925,4.77901515550911,
470,470,2,0.498783402944868,0.307809150595358,9.23889055848122,0.461128912866116,4.38888082280755,4.85000973567367,
480,480,2,0.49859235999654,0.305475829236489,9.18564274907112,0.29368344694376,4.44597965106368,4.73966309800744,
490,490,2,0.497442057192139,0.30377304896079,9.15038883686066,0.225743837654591,4.46232249960303,4.68806633725762,
500,500,2,0.5012618516549,0.306048674213793,9.25677493214607,0.331262871623039,4.46275603026152,4.79401890188456,
510,510,2,0.497125402795616,0.303477400772553,9.11645516753197,0.146190449595451,4.48513235896826,4.63132280856371,
520,520,2,0.505440951633034,0.309606316874502,9.42632183432579,0.420727115124464,4.50279735960066,4.92352447472513,
530,530,2,0.502943199920794,0.308060373491747,9.31456983089447,0.330645684152842,4.49196207337081,4.82260775752366,
540,540,2,0.505133168101497,0.306978837632714,9.37004387378693,0.253531336784363,4.55825626850128,4.81178760528564,
550,550,2,0.505343230184354,0.307075068776077,9.38595905900002,0.270129647105932,4.55791470594704,4.82804435305297,
560,560,2,0.504795152662089,0.307235737882694,9.34943035244942,0.253330264240503,4.54805004410446,4.80138030834496,
570,570,2,0.505617162495106,0.306462908125157,9.38004106283188,0.225079897791147,4.57748058252037,4.80256048031151,
580,580,2,0.509272952406015,0.308139075805899,9.49166938662529,0.242051389068365,4.62480899877846,4.86686038784683,
590,590,2,0.506954676034162,0.306810716999508,9.3666210770607,0.168540887534618,4.59904009476304,4.76758098229766,
600,600,2,0.509764185425453,0.310315418337984,9.50623378157616,0.309837143868208,4.59819831885397,4.90803546272218,
610,610,2,0.513294363888167,0.311629086991958,9.62344333529472,0.323298014700413,4.65007266029716,4.97337067499757,
620,620,2,0.50702933323388,0.305264631682914,9.31815579533577,0.0366903841495514,4.64073270559311,4.67742308974266,
630,630,2,0.508838989690924,0.307032488624146,9.39819663763046,0.13665771111846,4.630769463256,4.76742717437446,
640,640,2,0.511428998399014,0.30873803660972,9.48882400989532,0.206383410841227,4.64122029952705,4.84760371036828,
650,650,2,0.508944872335391,0.306373347872263,9.39427316188812,0.0798952765762806,4.65718894265592,4.7370842192322,
660,660,2,0.511017248329846,0.305739968112297,9.44167077541351,0.00720089301466942,4.71723494119942,4.72443583421409,
670,670,2,0.511289690335281,0.308717527169874,9.45907905697823,0.149374175816774,4.65485244058073,4.8042266163975,
680,680,2,0.513085792110627,0.309311236421624,9.52324196696281,0.153139419853687,4.68505127355456,4.83819069340825,
690,690,2,0.509571084436448,0.304416647957219,9.34017673134804,-0.0798440538346767,4.71001039259136,4.63016633875668,
700,700,2,0.511091763595724,0.306853439085279,9.40395370125771,0.0161869451403618,4.69388337805867,4.71007032319903,
710,710,2,0.514830159001378,0.308847680500941,9.57087203860283,0.130719039589167,4.72007649950683,4.850795539096,
720,720,2,0.512044920296688,0.307382497473014,9.44767892360687,0.00559920445084572,4.72103985957801,4.72663906402886,
730,730,2,0.516785936346464,0.311157937610848,9.64933335781097,0.196476466953754,4.72642844542861,4.92290491238236,
740,740,2,0.516170369283389,0.31029356052666,9.58633124828339,0.125114433467388,4.730608407408,4.85572284087539,
750,750,2,0.510709890599828,0.304861610544892,9.35686156153679,-0.120764225721359,4.73881289362907,4.61804866790771,
760,760,2,0.518142823854648,0.31298696803702,9.6849299967289,0.2426752820611,4.7211273573339,4.963802639395,
770,770,2,0.515790696262009,0.309601987892389,9.57925990223885,0.0533662736415863,4.76294681429863,4.81631308794022,
780,780,2,0.518451955757663,0.309812688677525,9.65994745492935,0.0844972208142281,4.78772511705756,4.87222233787179,
790,790,2,0.514730237578182,0.308996852966538,9.49038416147232,0.0124010257422924,4.73899156786501,4.75139259360731,
800,800,2,0.518944891983178,0.311402276716009,9.67383459210396,0.128031242638826,4.77290167473257,4.90093291737139,
810,810,2,0.514239288426423,0.307828950366005,9.42212119698524,-0.0778969377279282,4.75000906735659,4.67211212962866,
820,820,2,0.517988612737739,0.311758175819227,9.62428748607636,0.112795457243919,4.75574601441622,4.86854147166014,
830,830,2,0.514928022383898,0.308249145498639,9.47626158595085,-0.0382114201784134,4.75723650306463,4.71902508288622,
840,840,2,0.518399582170788,0.311460469590314,9.62964221835136,0.113176740705967,4.7582327388227,4.87140947952867,
850,850,2,0.517649319893774,0.308683746916009,9.55305621027946,-0.0828545540571213,4.81795538216829,4.73510082811117,
860,860,2,0.517454018930253,0.308164978731656,9.5440074801445,-0.0758964568376541,4.80995196849108,4.73405551165342,
870,870,2,0.516054480303219,0.309593258961244,9.47713553905487,-0.020248256623745,4.74869189783931,4.72844364121556,
880,880,2,0.523471871802583,0.315380540310871,9.78356152772903,0.208705198019743,4.78742816485465,4.99613336287439,
890,890,2,0.516260213403963,0.308299532011757,9.47382748126984,-0.0894338823854923,4.78163068182766,4.69219679944217,
900,900,2,0.519613968103845,0.312112868484808,9.60336104035378,0.0621994026005268,4.77058081887662,4.83278022147715,
910,910,2,0.517568488572026,0.308391363206087,9.49132964015007,-0.0984850339591503,4.79490733705461,4.69642230309546,
920,920,2,0.522032165898895,0.31597467536414,9.71362292766571,0.215700548142195,4.74896118976176,4.96466173790395,
930,930,2,0.521558603642508,0.311739582486218,9.66915860772133,0.00396408140659332,4.83259726315737,4.83656134456396,
940,940,2,0.517858743274352,0.310819425403001,9.50762033462524,-0.0164254568517208,4.76202289573848,4.74559743888676,
950,950,2,0.521472378834849,0.314097884200886,9.64584425091743,0.139670073986053,4.75308708846569,4.89275716245174,
960,960,2,0.519399009303516,0.311772511137044,9.5731720328331,0.0143703073263168,4.77940086275339,4.79377117007971,
970,970,2,0.521029545254773,0.312607153081801,9.64122787117958,0.0257697887718678,4.80772904120386,4.83349882997572,
980,980,2,0.518341460263403,0.311973276553396,9.51518267393112,0.00433716922998428,4.75542275235057,4.75975992158055,
990,990,2,0.522952181048272,0.314372313280078,9.70447883009911,0.12779338285327,4.78834272362292,4.91613610647619,
1000,1000,2,0.521121376449103,0.311868671313487,9.61821675300598,-0.017065741121769,4.81764124706388,4.80057550594211,
1010,1010,2,0.518693952954467,0.309019491413981,9.48872789740562,-0.142131838947535,4.81542986817658,4.67329802922904,
1020,1020,2,0.522938342498895,0.314886468614638,9.69270020723343,0.0825841911137104,4.80505800805986,4.88764219917357,
1030,1030,2,0.522931174839987,0.314610833097808,9.71489921212196,0.0889281742274761,4.81298551894724,4.90191369317472,
1040,1040,2,0.518680824074289,0.311294903766224,9.48378890752792,-0.0886524096131325,4.78622065857053,4.6975682489574,
1050,1050,2,0.521466701481258,0.313141250120848,9.60470288991928,0.0403719954192638,4.78216544725001,4.82253744266927,
1060,1060,2,0.520210232164711,0.311573661827529,9.53175202012062,-0.0646308064460754,4.79819141328335,4.73356060683727,
1070,1070,2,0.518989601142705,0.311051629164862,9.5045194029808,-0.0727636739611626,4.78864153847098,4.71587786450982,
1080,1080,2,0.520619569358602,0.31247316753706,9.55345630645752,-0.021826196461916,4.78764125145972,4.7658150549978,
1090,1090,2,0.522485502583114,0.31487298489986,9.62726399302483,0.0571010634303093,4.78508146479726,4.84218252822757,
1100,1100,2,0.518999536511488,0.310075550148776,9.46672335267067,-0.121455825865269,4.79408958926797,4.6726337634027,
1110,1110,2,0.523128108042665,0.315557035040623,9.65195521712303,0.0816650688648224,4.7851450741291,4.86681014299393,
1120,1120,2,0.522126055133902,0.311777762689115,9.57939475774765,-0.0664313323795795,4.82291304506361,4.75648171268404,
1130,1130,2,0.520434416664625,0.311362535240874,9.52100083231926,-0.135998800396919,4.82849981635809,4.69250101596117,
1140,1140,2,0.522018895084877,0.31389960262673,9.58005040884018,-0.00897292047739029,4.79451166465878,4.78553874418139,
1150,1150,2,0.525474132480193,0.317169119592709,9.72429066896439,0.135045312345028,4.79462267830968,4.92966799065471,
1160,1160,2,0.520555557196867,0.311033035831852,9.50612127780914,-0.132679380476475,4.81940032914281,4.68672094866633,
1170,1170,2,0.529521092053503,0.318319422397111,9.87777933478355,0.194124970585108,4.84182718209922,5.03595215268433,
1180,1180,2,0.525376552965352,0.316539359145658,9.70964431762695,0.103539135307074,4.80305259115994,4.90659172646701,
1190,1190,2,0.522412477622554,0.312672868449613,9.58449617028236,-0.0654574483633041,4.82497680932283,4.75951936095953,
1200,1200,2,0.522692016319977,0.315046215151297,9.58916544914246,0.00164955854415894,4.79375794529915,4.79540750384331,
1210,1210,2,0.523784977853112,0.313822106750216,9.6188485622406,-0.0572141259908676,4.83803134411573,4.78081721812487,
1220,1220,2,0.521652634811355,0.310908275986696,9.53208357095718,-0.160185247659683,4.84613440930843,4.68594916164875,
1230,1230,2,0.525290328157693,0.316588255353458,9.66203212738037,0.079087819904089,4.79147215373814,4.87055997364223,
1240,1240,2,0.52423930807421,0.313779668532126,9.61938872933388,-0.0348418951034546,4.82711531221867,4.79227341711521,
1250,1250,2,0.524359667970333,0.315871844297228,9.63579714298248,0.0350820831954479,4.80035752989352,4.83543961308897,
1260,1260,2,0.522437316044513,0.315147768813651,9.59435179829597,0.0174335204064846,4.78845913894475,4.80589265935123,
1270,1270,2,0.520984978029085,0.313080360503588,9.47008281946182,-0.0967001542448998,4.78339148685336,4.68669133260846,
1280,1280,2,0.522147345209867,0.314696490170108,9.55581367015839,-0.0374643132090569,4.79663899168372,4.75917467847466,
1290,1290,2,0.522732467464311,0.313549806678621,9.56849381327629,-0.103130843490362,4.83581232838333,4.73268148489296,
1300,1300,2,0.52775344801303,0.317635727090947,9.74799320101738,0.0693794339895248,4.83930688351393,4.90868631750345,
1310,1310,2,0.521585429138224,0.312860859820386,9.47466716170311,-0.15293201431632,4.81379958800972,4.66086757369339,
1320,1320,2,0.52327791921054,0.315448952421639,9.57906320691109,-0.0153783708810806,4.79722078889608,4.781842418015,
1330,1330,2,0.524553620562376,0.315297367080767,9.61540788412094,-0.0475332140922546,4.8314705491066,4.78393733501434,
1340,1340,2,0.527387471607188,0.318940737780696,9.69211459159851,0.106177572160959,4.79296850971878,4.89914608187974,
1350,1350,2,0.523928898766637,0.316447669885168,9.57977995276451,0.0178270973265171,4.780976427719,4.79880352504551,
1360,1360,2,0.526327438724879,0.316600390696758,9.69286412000656,0.023747980594635,4.83455806970596,4.8583060503006,
1370,1370,2,0.524608690892207,0.315854599335697,9.60346609354019,-0.0242022797465324,4.81383418664336,4.78963190689683,
1380,1380,2,0.523918253728654,0.316138254114473,9.5833532512188,0.0097343698143959,4.7868094407022,4.7965438105166,
1390,1390,2,0.526134834504314,0.316377483601403,9.63025316596031,0.0124993734061718,4.80887689627707,4.82137626968324,
1400,1400,2,0.521437250209507,0.312751925598364,9.45582240819931,-0.152195245027542,4.80400882661343,4.65181358158588,
1410,1410,2,0.523989788383897,0.314723741467344,9.55355539917946,-0.0474490225315094,4.80050221085548,4.75305318832397,
1420,1420,2,0.530578853994375,0.319737199522555,9.84747931361198,0.133195705711842,4.85714180395007,4.99033750966191,
1430,1430,2,0.52126394899115,0.311965399225289,9.43870693445206,-0.211192388087511,4.82494966126978,4.61375727318227,
1440,1440,2,0.527963155261287,0.319782192549761,9.6842385828495,0.1284952275455,4.777871677652,4.9063669051975,
1450,1450,2,0.521693298856448,0.312260692578927,9.43325906991959,-0.196606107056141,4.81493258848786,4.61832648143172,
1460,1460,2,0.525648498202348,0.317299343890697,9.61282551288605,0.0137934461236,4.79951603338122,4.81330947950482,
1470,1470,2,0.524319287792919,0.317356685161963,9.56553146243095,0.0084972009062767,4.77851713076234,4.78701433166862,
1480,1480,2,0.522926561990194,0.314235063257022,9.4580166041851,-0.114437378942966,4.78622699156404,4.67178961262107,
1490,1490,2,0.526760691770771,0.316882768070977,9.66053083539009,-0.003861915320158,4.83219637535512,4.82833446003497,
1500,1500,2,0.523720539889857,0.314667819534475,9.49427038431168,-0.106590893119574,4.80043063871562,4.69383974559605,
1510,1510,2,0.526486830426939,0.317112771858321,9.61021333932877,-0.0138658098876476,4.81203957460821,4.79817376472056,
1520,1520,2,0.527259660184476,0.318967350375652,9.68356132507324,0.0725253485143185,4.80551798827946,4.87804333679378,
1530,1530,2,0.522427948411088,0.315085317924153,9.46958214044571,-0.103269331157207,4.78642573580146,4.68315640464425,
1540,1540,2,0.526861535763927,0.318190049702162,9.63836759328842,0.05083829164505,4.79376465082169,4.84460294246674,
1550,1550,2,0.526872819504188,0.318536581171956,9.61395651102066,0.0478769652545452,4.78303977288306,4.8309167381376,
1560,1560,2,0.526337870862102,0.316923574049911,9.62053388357162,-0.0279786065220833,4.82425624504685,4.79627763852477,
1570,1570,2,0.525396920471359,0.316110293148039,9.5650739967823,-0.0586613081395626,4.81186765246093,4.75320634432137,
1580,1580,2,0.528524432630651,0.320122762798285,9.70283597707748,0.0967134721577168,4.80306125245988,4.8997747246176,
1590,1590,2,0.527125603672815,0.317881130699906,9.65458229184151,-0.00341655686497688,4.82899942435324,4.82558286748827,
1600,1600,2,0.527813060225733,0.318647573434655,9.67858284711838,0.0328359194099903,4.82287346385419,4.85570938326418,
1610,1610,2,0.52434306171108,0.315459739393461,9.49589163064957,-0.0786948017776012,4.78729321621358,4.70859841443598,
